t (s)	T (x=2.5cm)	T (x=5cm)	T (x=7.5cm)	HR (x=2.5cm)	HR (x=5cm)	HR (x=7.5cm)	Q (x=5cm)
0	2.921499999999999773e+02	2.921500000000007162e+02	2.921499999999996930e+02	5.000000000000012212e-01	4.999999999999991673e-01	4.999999999999996669e-01	-2.582401124725411727e-11
600	2.912787863776349582e+02	2.920894600772163585e+02	2.922233863731122483e+02	4.978776142989842501e-01	4.998469414390696031e-01	5.002044650148677052e-01	-5.145221563382936791e-01
1200	2.900401785476519763e+02	2.919592941043300129e+02	2.923145747436082047e+02	4.951292643039966745e-01	4.995203745101462478e-01	5.004432070938833466e-01	-1.523405611894882217e+00
1800	2.889780949074166756e+02	2.916945606642618145e+02	2.923621830855639701e+02	4.927922255066100043e-01	4.988705056630142187e-01	5.005579730418152629e-01	-3.018014482513843078e+00
2400	2.881540558838898392e+02	2.913779530569568124e+02	2.923706403776967591e+02	4.911872043366032337e-01	4.981110946494542446e-01	5.006169521433069258e-01	-4.395566237434914925e+00
3000	2.875025703856466066e+02	2.910443573808160522e+02	2.923344305623124342e+02	4.900629945584915048e-01	4.973319252321974915e-01	5.005110620398621757e-01	-5.529703698116304800e+00
3600	2.869889957396294449e+02	2.907147515477655020e+02	2.922616476293765686e+02	4.892498680596593652e-01	4.965836554290855576e-01	5.002364915836083892e-01	-6.407963935064308281e+00
4200	2.865889662266528148e+02	2.904003613811261175e+02	2.921528004949063302e+02	4.886533548390283865e-01	4.958901794905981597e-01	4.998264951064873562e-01	-7.052162421341442666e+00
4800	2.862687722228181428e+02	2.901062040910680366e+02	2.920213746665424424e+02	4.881852470644572062e-01	4.952594120253018817e-01	4.993594960152074602e-01	-7.504054855055210638e+00
5400	2.860036901400977172e+02	2.898346880267314418e+02	2.918919169838032417e+02	4.877899195324000292e-01	4.946933877411994751e-01	4.989363302940187372e-01	-7.819141713221351431e+00
6000	2.857817828396550226e+02	2.895861891669503052e+02	2.917619099983190836e+02	4.874401430640584176e-01	4.941899814612281117e-01	4.985743343613548428e-01	-8.038600440496361799e+00
6600	2.855900978160787531e+02	2.893592411385670289e+02	2.916297684699662796e+02	4.871110380083139013e-01	4.937433371689669004e-01	4.982871344696379601e-01	-8.189387311828618010e+00
7200	2.854196703548669802e+02	2.891526546989884423e+02	2.915132242353522543e+02	4.867927141104141930e-01	4.933489855888940068e-01	4.981321666345934762e-01	-8.299966900209552634e+00
7800	2.852783633926478615e+02	2.889667114454510397e+02	2.914177507496931412e+02	4.865102305756403012e-01	4.930064180206423230e-01	4.981245103494060245e-01	-8.387925341195497708e+00
8400	2.851738424290855960e+02	2.888016817338045712e+02	2.913281872277016191e+02	4.862868888735250583e-01	4.927151076691012599e-01	4.982202444937592345e-01	-8.448878095960161261e+00
9000	2.851015780244431426e+02	2.886565403940635974e+02	2.912344478202156211e+02	4.861220285071238822e-01	4.924713380587430467e-01	4.983895460468700800e-01	-8.472085898041671115e+00
9600	2.850555908610055553e+02	2.885291864886468147e+02	2.911336044364396685e+02	4.860104497708536697e-01	4.922688428753039247e-01	4.986208555771698969e-01	-8.452024726408208011e+00
10200	2.850276505898661981e+02	2.884171254162999389e+02	2.910285397015225044e+02	4.859389118917908923e-01	4.921006239230405477e-01	4.989141417774448084e-01	-8.392535184132000836e+00
10800	2.850042693637517459e+02	2.883187417942996831e+02	2.909394925395646965e+02	4.858856899995449008e-01	4.919622823130906375e-01	4.993127213360006311e-01	-8.315913884587534000e+00
11400	2.849823713512794257e+02	2.882335797328785816e+02	2.908757122661029371e+02	4.858511415166040792e-01	4.918527003493931016e-01	4.998345865232638463e-01	-8.246722241652941321e+00
12000	2.849600782598212732e+02	2.881612513566597045e+02	2.908331928267499507e+02	4.858371421660190870e-01	4.917712768153565950e-01	5.004677936075276889e-01	-8.198463029081194620e+00
12600	2.849354894462637731e+02	2.881008936783612739e+02	2.908080896919772158e+02	4.858455213557116847e-01	4.917164671330363501e-01	5.011990707547745449e-01	-8.175707228071095400e+00
13200	2.849225924072417229e+02	2.880514509717783085e+02	2.907863159101105452e+02	4.859069326520497056e-01	4.916860788762174028e-01	5.019880592284187149e-01	-8.165025660558775655e+00
13800	2.849395458043439930e+02	2.880128354370887678e+02	2.907620537163162453e+02	4.860582501036306846e-01	4.916797155249602591e-01	5.028177572925488503e-01	-8.141577352495861675e+00
14400	2.849806184943568610e+02	2.879852875647602559e+02	2.907377311493584102e+02	4.862900590750128815e-01	4.916975024874766786e-01	5.036879621985957955e-01	-8.092122362512073508e+00
15000	2.850179016048755329e+02	2.879670951083909358e+02	2.907133711192812484e+02	4.865480900357014304e-01	4.917352674061007956e-01	5.045906022892081566e-01	-8.025987923588544959e+00
15600	2.850429998702515491e+02	2.879553556427155740e+02	2.906913025642446087e+02	4.868170165633810553e-01	4.917864532177017023e-01	5.055263834727102834e-01	-7.959664090364333866e+00
16200	2.850731744320187886e+02	2.879478939885132149e+02	2.906639378347230718e+02	4.871332371138678008e-01	4.918462029248052980e-01	5.064705715631805383e-01	-7.891192167213265662e+00
16800	2.851184982296217640e+02	2.879435058817163053e+02	2.906240697741804979e+02	4.875140457772808578e-01	4.919116521505925155e-01	5.073987508809288949e-01	-7.805361492563498871e+00
17400	2.851650338188520095e+02	2.879415307396207595e+02	2.905845015060862693e+02	4.879290224379927987e-01	4.919812288470099548e-01	5.083394991057677004e-01	-7.704551515907032133e+00
18000	2.852027686742367791e+02	2.879425993596840954e+02	2.905684926596287596e+02	4.883610788619842658e-01	4.920567728708095112e-01	5.093520039431934654e-01	-7.613110330363979550e+00
18600	2.852432624756506243e+02	2.879487849804169173e+02	2.905782174750383433e+02	4.888342915136512645e-01	4.921437543043646334e-01	5.104428466277762810e-01	-7.545791901941321989e+00
19200	2.852868411389079597e+02	2.879604569122459452e+02	2.905874688039333478e+02	4.893464102041060193e-01	4.922436198190812684e-01	5.115457141270480790e-01	-7.493569435107661825e+00
19800	2.853362513663312257e+02	2.879763308336275713e+02	2.905860997992131729e+02	4.899019346432312294e-01	4.923537036868115835e-01	5.126328980461772877e-01	-7.438851270823909623e+00
20400	2.854085160783273523e+02	2.879977021891560867e+02	2.905969736664621905e+02	4.905355442132260935e-01	4.924771226597856044e-01	5.137591228590502324e-01	-7.373734773425649536e+00
21000	2.855044032758563048e+02	2.880278945917464739e+02	2.906289247702680996e+02	4.912487275137528697e-01	4.926217184786264025e-01	5.149464479235283942e-01	-7.300154434611814125e+00
21600	2.856136749005324305e+02	2.880675867517203415e+02	2.906551706430063859e+02	4.920210856451864845e-01	4.927891726603936262e-01	5.161270243523629064e-01	-7.211581959602283654e+00
22200	2.857269591286731725e+02	2.881140607701132126e+02	2.906610654348837102e+02	4.928315829767771494e-01	4.929731803787174016e-01	5.172599724341314653e-01	-7.098286721899064844e+00
22800	2.858394630350046555e+02	2.881641437898961158e+02	2.906564807914040784e+02	4.936676104500355988e-01	4.931663817191885846e-01	5.183631632236409548e-01	-6.962089179126270011e+00
23400	2.859398885386073061e+02	2.882154875963216796e+02	2.906543455539056708e+02	4.945024220283498750e-01	4.933635675402138210e-01	5.194637004422536508e-01	-6.820030084915225999e+00
24000	2.860173387303939307e+02	2.882659340007702440e+02	2.906579743143090582e+02	4.953083440505444690e-01	4.935602899460110327e-01	5.205658518692403147e-01	-6.693288134428584613e+00
24600	2.860860015965681100e+02	2.883141585772106623e+02	2.906617248123515651e+02	4.961145115252042492e-01	4.937540725795927510e-01	5.216512585270519642e-01	-6.584995176289018204e+00
25200	2.861609226477703487e+02	2.883611503139620709e+02	2.906737657013289322e+02	4.969519150136627594e-01	4.939477056834705726e-01	5.227433658599898170e-01	-6.489123616393924543e+00
25800	2.862392618116052745e+02	2.884086622608462562e+02	2.906949677782556591e+02	4.978126606643596408e-01	4.941456992376562218e-01	5.238483633480344182e-01	-6.402540026695207054e+00
26400	2.863185584285649838e+02	2.884579065441474199e+02	2.907230764408548112e+02	4.986917400866466843e-01	4.943513012369878945e-01	5.249600322885522585e-01	-6.324406525231523801e+00
27000	2.864068293023784690e+02	2.885102227807516897e+02	2.907587646950370299e+02	4.996020346593350592e-01	4.945680130529191421e-01	5.260812905294270925e-01	-6.250780678979215743e+00
27600	2.865085578747920181e+02	2.885666486298022733e+02	2.907943449673872465e+02	5.005493879682801905e-01	4.947984956517414434e-01	5.271922737044600904e-01	-6.171708858335632542e+00
28200	2.866141977705790964e+02	2.886276244661829651e+02	2.908351437487565931e+02	5.015113615478660192e-01	4.950440233444032279e-01	5.283060961379445475e-01	-6.087587103876699324e+00
28800	2.867157332022512719e+02	2.886927935202411390e+02	2.908824273319534086e+02	5.024669771194948398e-01	4.953041221080883849e-01	5.294301023502484549e-01	-6.006490831274520659e+00
29400	2.868161625899711566e+02	2.887602399868662246e+02	2.909167472129264524e+02	5.034215620983636397e-01	4.955745651935521412e-01	5.305148259659323573e-01	-5.922405757807287507e+00
30000	2.869186175917780020e+02	2.888265310944200337e+02	2.909204450415987253e+02	5.043789290949848292e-01	4.958472319281254648e-01	5.315061210289664384e-01	-5.816441896279433976e+00
30600	2.870170020489864555e+02	2.888890607469157317e+02	2.909103171491710782e+02	5.053203791317452120e-01	4.961158264736197920e-01	5.324404681881955703e-01	-5.687226360232100042e+00
31200	2.871056499667382127e+02	2.889478290580120188e+02	2.909130777895065876e+02	5.062318550344319101e-01	4.963804343659848350e-01	5.333895477382204486e-01	-5.556676151644730055e+00
31800	2.871869719553046139e+02	2.890043300535295998e+02	2.909314727474954907e+02	5.071173129224847420e-01	4.966449317326473989e-01	5.343658573634505471e-01	-5.443154424026849902e+00
32400	2.872597840225084838e+02	2.890599830568091875e+02	2.909633677335734205e+02	5.079686441671460440e-01	4.969131801803475246e-01	5.353695702735330464e-01	-5.355324110571459073e+00
33000	2.873369607801133156e+02	2.891162439860428321e+02	2.910024073464234107e+02	5.088098635611086884e-01	4.971890537824404932e-01	5.363863513396152083e-01	-5.286353074662097917e+00
33600	2.874254724579884055e+02	2.891739080456850957e+02	2.910352517482875214e+02	5.096561362426554886e-01	4.974746064489360964e-01	5.373778582211029553e-01	-5.217478900525331476e+00
34200	2.875003322151750922e+02	2.892317269964950697e+02	2.910644685808371150e+02	5.104491271990375667e-01	4.977670334793499740e-01	5.383464263063586497e-01	-5.149519268011014894e+00
34800	2.875536670900204399e+02	2.892878735313348102e+02	2.910998017675083815e+02	5.111659356598671211e-01	4.980623196023609145e-01	5.393171882795659844e-01	-5.098214928267246648e+00
35400	2.876083167900966941e+02	2.893413114052910373e+02	2.911269191974490127e+02	5.118550072381329308e-01	4.983581876889999207e-01	5.402562152815829633e-01	-5.055718073819599923e+00
36000	2.876822036803853848e+02	2.893924120963094992e+02	2.911395243318829671e+02	5.125574367497304218e-01	4.986553438181262066e-01	5.411480396266857840e-01	-4.997701279223051074e+00
36600	2.877619641237051837e+02	2.894416824911403410e+02	2.911448876745309917e+02	5.132424461135772775e-01	4.989546807962932373e-01	5.420092091902738440e-01	-4.917615144753002987e+00
37200	2.878327258597993250e+02	2.894887151879011071e+02	2.911478229005778644e+02	5.138721555737810753e-01	4.992550436201603770e-01	5.428496915429521508e-01	-4.827127650491274125e+00
37800	2.879031540265004310e+02	2.895347368010394007e+02	2.911661946284315263e+02	5.144622270560404997e-01	4.995593933945183807e-01	5.437183382414259025e-01	-4.742229155643181926e+00
38400	2.879766830135127975e+02	2.895815564126114054e+02	2.911945727846343743e+02	5.150179030458181817e-01	4.998721798584043197e-01	5.446072099469820849e-01	-4.667912768061830420e+00
39000	2.880432886779303203e+02	2.896279080891681588e+02	2.912060303662460115e+02	5.155150867368588630e-01	5.001903934877749425e-01	5.454474035057812475e-01	-4.594709276974850098e+00
39600	2.880946070551939329e+02	2.896705517678416868e+02	2.912003118719265444e+02	5.159306425542019570e-01	5.005061899695971706e-01	5.462311272839744936e-01	-4.518407867392889798e+00
40200	2.881309698257339846e+02	2.897086094910919769e+02	2.912079732921877735e+02	5.162606774591885772e-01	5.008175093483087092e-01	5.470309877190786541e-01	-4.455487205547338903e+00
40800	2.881620941787410857e+02	2.897440995247797559e+02	2.912383643501824508e+02	5.165275931993322800e-01	5.011294036052800216e-01	5.478764473693660264e-01	-4.420671444039010467e+00
41400	2.882018660105152321e+02	2.897793502891661888e+02	2.912729591734798760e+02	5.167636406295602614e-01	5.014475826660337310e-01	5.487287763587985756e-01	-4.403564454057474542e+00
42000	2.882487296823372844e+02	2.898156027874151164e+02	2.913057504732237817e+02	5.169655289271630760e-01	5.017749852087893814e-01	5.495724968969475377e-01	-4.389342291146288488e+00
42600	2.882868778213435803e+02	2.898518182747837955e+02	2.913312068458672570e+02	5.170956880608216233e-01	5.021090122977674985e-01	5.503896907015567441e-01	-4.374539132035715205e+00
43200	2.883099770507196808e+02	2.898851119861095071e+02	2.913421803053665826e+02	5.171352055462467012e-01	5.024425791213339432e-01	5.511601624693170942e-01	-4.359319377108905158e+00
43800	2.883249068110683311e+02	2.899128719985993712e+02	2.913379564713774244e+02	5.170982888865465199e-01	5.027691331918856532e-01	5.518795629811773518e-01	-4.340052543868690549e+00
44400	2.883370267720252969e+02	2.899350113348991158e+02	2.913363563961406726e+02	5.170007713779797287e-01	5.030881815875600793e-01	5.525950737499417675e-01	-4.320668929086890486e+00
45000	2.883447494329338383e+02	2.899534661596208025e+02	2.913498984230893711e+02	5.168440761907576730e-01	5.034042490711925222e-01	5.533437983844745611e-01	-4.313430157816440236e+00
45600	2.883525608440542101e+02	2.899697536854599775e+02	2.913647260701554274e+02	5.166410202408364682e-01	5.037208737624233601e-01	5.540907706981467173e-01	-4.317141204427680456e+00
46200	2.883630917463601691e+02	2.899843479491734684e+02	2.913731086969343096e+02	5.163986439189647282e-01	5.040389715461480735e-01	5.548129977554969727e-01	-4.321609146267258339e+00
46800	2.883683724356267817e+02	2.899961955601917225e+02	2.913689727487073924e+02	5.160991571629497399e-01	5.043556664679968993e-01	5.554896575048052787e-01	-4.320055060716534889e+00
47400	2.883598262318466823e+02	2.900028849632079755e+02	2.913489652648525521e+02	5.157237393308129469e-01	5.046647587951184066e-01	5.561065860182008436e-01	-4.312300184426701044e+00
48000	2.883359287352170099e+02	2.900025518253344785e+02	2.913228430104879294e+02	5.152691374857695239e-01	5.049614160642703631e-01	5.566871015973493542e-01	-4.305972118577569674e+00
48600	2.883081715054833580e+02	2.899953234438018512e+02	2.912964577442566565e+02	5.147622649760971170e-01	5.052456191271791353e-01	5.572509157648043443e-01	-4.304515277764084935e+00
49200	2.882876772876185782e+02	2.899837852496834216e+02	2.912799545901288525e+02	5.142319076973664860e-01	5.055232796960867914e-01	5.578302232236780345e-01	-4.308346409739721494e+00
49800	2.882696420427141106e+02	2.899715379423689114e+02	2.912836560150934702e+02	5.136671717439567075e-01	5.058029020402513565e-01	5.584536040133309953e-01	-4.325488635015592109e+00
50400	2.882423111644312712e+02	2.899607307624068540e+02	2.913044630660259031e+02	5.130427699759233517e-01	5.060897229599565783e-01	5.591166900122178651e-01	-4.367229406126402758e+00
51000	2.882086850140229899e+02	2.899521342353310160e+02	2.913362551592245495e+02	5.123733147329745385e-01	5.063857602611823161e-01	5.598112272270177048e-01	-4.435851458812380521e+00
51600	2.881757165706417823e+02	2.899451882099577915e+02	2.913626522169467989e+02	5.116785712589365653e-01	5.066896706126039485e-01	5.604979966353713650e-01	-4.517479242622001401e+00
52200	2.881390106087745835e+02	2.899373768520561043e+02	2.913679993698208932e+02	5.109468373149919085e-01	5.069951278778049852e-01	5.611326906931806136e-01	-4.593735919878806584e+00
52800	2.880990787226348857e+02	2.899264572084226756e+02	2.913605952767117628e+02	5.101795631252762364e-01	5.072962837096326449e-01	5.617301257299631700e-01	-4.657726935830668324e+00
53400	2.880595968860908442e+02	2.899123612119883546e+02	2.913555257649037458e+02	5.093902089786076504e-01	5.075925250503899866e-01	5.623242548207009195e-01	-4.714656669592796057e+00
54000	2.880153413016893182e+02	2.898954527632563440e+02	2.913507131377571682e+02	5.085739295759331702e-01	5.078843806454639287e-01	5.629110866885109754e-01	-4.771400952026447762e+00
54600	2.879646078715523458e+02	2.898751579925473152e+02	2.913376559002757631e+02	5.077325296093021523e-01	5.081701583197888450e-01	5.634729038194736805e-01	-4.828156932366666432e+00
55200	2.879223291172533550e+02	2.898515428088253429e+02	2.913153892890481416e+02	5.068998032001013065e-01	5.084495470641339221e-01	5.640083164143051553e-01	-4.875109727855281960e+00
55800	2.878888703237228697e+02	2.898260163055062435e+02	2.912947471931637438e+02	5.060724367257182221e-01	5.087254105359179102e-01	5.645413436776390848e-01	-4.909978500144730695e+00
56400	2.878428203032209467e+02	2.897996902346724823e+02	2.912876433218756915e+02	5.052018914245686165e-01	5.090002147140114674e-01	5.651007320634336972e-01	-4.951651472262288856e+00
57000	2.877778272959039896e+02	2.897719600181043802e+02	2.912846670679976455e+02	5.042780194596756527e-01	5.092726011341974779e-01	5.656660545038533217e-01	-5.014418441601419474e+00
57600	2.877071477161798612e+02	2.897407389120313042e+02	2.912632784715901266e+02	5.033338226198478260e-01	5.095375057455929779e-01	5.661816457120407708e-01	-5.085106628172012755e+00
58200	2.876424430655245601e+02	2.897048688511202954e+02	2.912264569838861803e+02	5.023977133569635933e-01	5.097917560800202530e-01	5.666511344783232706e-01	-5.145082477306898383e+00
58800	2.875860583256108498e+02	2.896662018347066692e+02	2.912000805604308766e+02	5.014778041377001561e-01	5.100393403989536001e-01	5.671381382293612106e-01	-5.196492896122520300e+00
59400	2.875279064001111351e+02	2.896272917831478253e+02	2.911894547571935732e+02	5.005536936345421628e-01	5.102861852521092256e-01	5.676606194782188863e-01	-5.253790618699471615e+00
60000	2.874569579719100716e+02	2.895876103589780541e+02	2.911713283346800267e+02	4.996024515676652511e-01	5.105310240722857884e-01	5.681640061434399813e-01	-5.320194096182842003e+00
60600	2.873830126839069408e+02	2.895448288719490506e+02	2.911322056351903598e+02	4.986472746543276213e-01	5.107681076222634342e-01	5.686128041831540747e-01	-5.381959902592167388e+00
61200	2.873105394842187934e+02	2.894977770360188742e+02	2.910833255595248943e+02	4.976994509409620182e-01	5.109942662310203998e-01	5.690285608442928744e-01	-5.431306342937582521e+00
61800	2.872340260958958993e+02	2.894472362796490188e+02	2.910430843459248536e+02	4.967504341907115761e-01	5.112111060864465983e-01	5.694546453587082668e-01	-5.479018679172395601e+00
62400	2.871566437619601970e+02	2.893959912892933630e+02	2.910262305498832234e+02	4.958120646116472852e-01	5.114252996364517800e-01	5.699337337120208291e-01	-5.542358669084289424e+00
63000	2.870778555892820236e+02	2.893464006877742349e+02	2.910237398689181987e+02	4.948865502231257762e-01	5.116427083614291105e-01	5.704507762763965095e-01	-5.627433274076108383e+00
63600	2.869964424744501343e+02	2.892983218473955276e+02	2.910151199427434676e+02	4.939730920280805959e-01	5.118631849053344451e-01	5.709558932591842773e-01	-5.724134797054264645e+00
64200	2.869116310292149592e+02	2.892502846605623859e+02	2.909978167089921612e+02	4.930697896132885671e-01	5.120832738945111373e-01	5.714367086261061823e-01	-5.822070805710199082e+00
64800	2.868200507289507755e+02	2.892011012181775982e+02	2.909795816901478247e+02	4.921697277082519584e-01	5.123001670509036432e-01	5.719097441739500187e-01	-5.921812366862663879e+00
