t (s)	T (x=2.5cm)	T (x=5cm)	T (x=7.5cm)	HR (x=2.5cm)	HR (x=5cm)	HR (x=7.5cm)	Q (x=5cm)
0	2.921500000000004889e+02	2.921499999999999773e+02	2.921499999999995225e+02	5.000000000000014433e-01	4.999999999999987232e-01	4.999999999999997780e-01	-9.840331113094321365e-12
600	2.913668717899185481e+02	2.921009778956698142e+02	2.922152755436505345e+02	4.979587466685347907e-01	4.998663645573516168e-01	5.001986836381550061e-01	-3.565088500009122585e-01
1200	2.902248142747340580e+02	2.919866265537131085e+02	2.922981836303943624e+02	4.951716456116085352e-01	4.995571503731475183e-01	5.004177632087500882e-01	-1.101363425380585737e+00
1800	2.891907824862782377e+02	2.917572627107352901e+02	2.923507595169367050e+02	4.927577268338964589e-01	4.989490614859122264e-01	5.005741260929951197e-01	-2.225001056784465359e+00
2400	2.883714129636513803e+02	2.914733642932621933e+02	2.923715574953697001e+02	4.910760878107194860e-01	4.982128417139190524e-01	5.006652761028810295e-01	-3.318170234724955314e+00
3000	2.877139395917398019e+02	2.911660920195709537e+02	2.923495927469475077e+02	4.898699839211962948e-01	4.974364729061140911e-01	5.005709029110975150e-01	-4.255969584433165309e+00
3600	2.871918076387433985e+02	2.908563375066801768e+02	2.922944855210686228e+02	4.889824294701731744e-01	4.966756885784118225e-01	5.003106123865030952e-01	-5.007360965678023135e+00
4200	2.867807930523001119e+02	2.905562070126069329e+02	2.922022413288950133e+02	4.883166758420611764e-01	4.959596472923353261e-01	4.999143856237664441e-01	-5.576980245014189208e+00
4800	2.864505202206824492e+02	2.902718062812703010e+02	2.920852053031340461e+02	4.877883282739154946e-01	4.953003578694817888e-01	4.994651768943515480e-01	-5.990028037149429885e+00
5400	2.861757207656754076e+02	2.900063901244714657e+02	2.919672752415194736e+02	4.873393553218147156e-01	4.947024647817439003e-01	4.990684535397197363e-01	-6.286796345092287019e+00
6000	2.859453601096010971e+02	2.897611163346466583e+02	2.918462828353655709e+02	4.869436551399591862e-01	4.941657172640832596e-01	4.987403178519176361e-01	-6.499482799799944033e+00
6600	2.857463767889737483e+02	2.895351917996625843e+02	2.917198820348367576e+02	4.865756460882353918e-01	4.936854344240790837e-01	4.984906341487291281e-01	-6.649732789795717025e+00
7200	2.855688048056694583e+02	2.893277892274196006e+02	2.916064405915605562e+02	4.862243141168640093e-01	4.932575596576266874e-01	4.983798039161895788e-01	-6.761006758690200513e+00
7800	2.854199167603674141e+02	2.891392495244534757e+02	2.915114158658293491e+02	4.859153516812577678e-01	4.928815207164797818e-01	4.984208127531715160e-01	-6.848933683046853460e+00
8400	2.853066770203034253e+02	2.889700029062883004e+02	2.914218668726365991e+02	4.856725537320811248e-01	4.925570464271724624e-01	4.985703586372808860e-01	-6.912791440500550166e+00
9000	2.852255205931029423e+02	2.888193454420707553e+02	2.913270532742880619e+02	4.854967366042223231e-01	4.922808801243893639e-01	4.987932912194683599e-01	-6.944966078085090366e+00
9600	2.851700302831426370e+02	2.886856385871158182e+02	2.912262764267301804e+02	4.853816102269161159e-01	4.920474093510016633e-01	4.990825306928899363e-01	-6.941951908850589881e+00
10200	2.851342320853715364e+02	2.885667162957431060e+02	2.911187491034566506e+02	4.853162349683159960e-01	4.918498594629354681e-01	4.994265901524022611e-01	-6.904971194485651331e+00
10800	2.851032868994875571e+02	2.884610765058110360e+02	2.910260846303988274e+02	4.852749036142242622e-01	4.916836781702175196e-01	4.998755314620175194e-01	-6.850675605858418393e+00
11400	2.850752237358407228e+02	2.883682514106250778e+02	2.909566399281535496e+02	4.852595263355079513e-01	4.915475049822315423e-01	5.004457018373421606e-01	-6.798220014918327614e+00
12000	2.850476033256904884e+02	2.882878838775896497e+02	2.909069925757562487e+02	4.852705452023343136e-01	4.914406664899633181e-01	5.011262205324760188e-01	-6.759039492150399120e+00
12600	2.850176638816021182e+02	2.882192571988201166e+02	2.908750983874699614e+02	4.853074076178394147e-01	4.913618210090121563e-01	5.019076215249389517e-01	-6.738628876744276575e+00
13200	2.849982103241817413e+02	2.881614098148060634e+02	2.908470271299390788e+02	4.853994586453453941e-01	4.913088837343372317e-01	5.027466995472661404e-01	-6.728631962038924996e+00
13800	2.850065279815134431e+02	2.881141248926970775e+02	2.908168129666719892e+02	4.855830791098776356e-01	4.912812104159416937e-01	5.036254814815579461e-01	-6.710773369312948766e+00
14400	2.850396543109596905e+02	2.880777109446783584e+02	2.907876193002084051e+02	4.858544523393981684e-01	4.912791984190109096e-01	5.045453726876736322e-01	-6.673730741225819330e+00
15000	2.850704189589653765e+02	2.880507673854716018e+02	2.907575431277055031e+02	4.861570821695503364e-01	4.912991780830080479e-01	5.054923538522890780e-01	-6.622449180612309583e+00
15600	2.850901766617782300e+02	2.880307870203847074e+02	2.907307963973745473e+02	4.864731645522514247e-01	4.913351047368852975e-01	5.064730869246732992e-01	-6.569516019679555896e+00
16200	2.851145356224291163e+02	2.880157093912841901e+02	2.906993342684260710e+02	4.868374377469538161e-01	4.913820992636518947e-01	5.074597487875346369e-01	-6.514753936140939672e+00
16800	2.851535577101311674e+02	2.880042915047410474e+02	2.906562959541501527e+02	4.872677438672539108e-01	4.914370802145204831e-01	5.084278286791252821e-01	-6.447184505836641044e+00
17400	2.851954319730581915e+02	2.879958182234353785e+02	2.906126680141198335e+02	4.877360638645013013e-01	4.914982681870570524e-01	5.094028565713492052e-01	-6.366844481423409086e+00
18000	2.852283102146490137e+02	2.879905833451412605e+02	2.905905589641789675e+02	4.882208203581483441e-01	4.915667791348319327e-01	5.104457691248485141e-01	-6.291478562684272191e+00
18600	2.852648921996938611e+02	2.879903847280245373e+02	2.905941918343157795e+02	4.887492722354628283e-01	4.916477577342024397e-01	5.115690231644435260e-01	-6.233482152444500102e+00
19200	2.853044724334759508e+02	2.879957290622942310e+02	2.905986124474206918e+02	4.893165500001728785e-01	4.917431125596343211e-01	5.127054919338175365e-01	-6.187805627004583364e+00
19800	2.853483792576349742e+02	2.880054679893797243e+02	2.905930754434846222e+02	4.899240721712457280e-01	4.918503956557105927e-01	5.138242198145406281e-01	-6.141944332905779014e+00
20400	2.854146853343953580e+02	2.880205393812676675e+02	2.905984921860554664e+02	4.906110860028752851e-01	4.919721101972760469e-01	5.149782441209708184e-01	-6.088639751398740252e+00
21000	2.855031571251730043e+02	2.880438413928887940e+02	2.906251216366005110e+02	4.913768140789039895e-01	4.921156269045051102e-01	5.161954160430612948e-01	-6.029174443499096370e+00
21600	2.856058325922541599e+02	2.880762909193454107e+02	2.906473339129475448e+02	4.922048482914977430e-01	4.922833623739436559e-01	5.174065878558299358e-01	-5.958590766624057622e+00
22200	2.857130408725394659e+02	2.881157284148391113e+02	2.906501974526030381e+02	4.930718110574564550e-01	4.924699871916952132e-01	5.185676191220671694e-01	-5.868949826804531256e+00
22800	2.858204956881189673e+02	2.881594112307734008e+02	2.906438579622324028e+02	4.939651071569400864e-01	4.926687138670305943e-01	5.196984121233562126e-01	-5.760994971219207450e+00
23400	2.859184583620683497e+02	2.882051253859878557e+02	2.906380005004252780e+02	4.948602967054518409e-01	4.928742591328595934e-01	5.208190169588292617e-01	-5.645727374284648548e+00
24000	2.859940060747393318e+02	2.882508701359234919e+02	2.906395644373599794e+02	4.957228973295533803e-01	4.930822088506223722e-01	5.219444676411255646e-01	-5.540615113562486371e+00
24600	2.860611801738069175e+02	2.882951553548754191e+02	2.906393653876615986e+02	4.965838954219221613e-01	4.932894634780667920e-01	5.230451538331264416e-01	-5.448834824008685906e+00
25200	2.861337557955243938e+02	2.883386050201205535e+02	2.906484090271760579e+02	4.974738145535516076e-01	4.934980955382719525e-01	5.241545606509337984e-01	-5.367152247799904075e+00
25800	2.862099231505526973e+02	2.883826886019301696e+02	2.906661615687813764e+02	4.983858381752953037e-01	4.937122154924360462e-01	5.252759523802897901e-01	-5.293190786619784483e+00
26400	2.862866365035235390e+02	2.884284285729314661e+02	2.906901334858661698e+02	4.993142451384209868e-01	4.939348089797584995e-01	5.264012725430504691e-01	-5.226048885326656013e+00
27000	2.863718093667837934e+02	2.884771090364694146e+02	2.907233233847246652e+02	5.002713398097758946e-01	4.941694837751873237e-01	5.275407775278332378e-01	-5.163606858385677789e+00
27600	2.864699875655134633e+02	2.885296578812292978e+02	2.907551706091693973e+02	5.012639289343012727e-01	4.944188101845919947e-01	5.286653830223621009e-01	-5.097684281899659275e+00
28200	2.865727303119584235e+02	2.885865992927439834e+02	2.907930411489464859e+02	5.022710295566993333e-01	4.946843436795875792e-01	5.297943900951854745e-01	-5.027888700913152320e+00
28800	2.866715974824312525e+02	2.886477088880936321e+02	2.908371538224337201e+02	5.032690606249785592e-01	4.949658732726536781e-01	5.309334451739268212e-01	-4.960097630560425408e+00
29400	2.867699216340592443e+02	2.887115000783082905e+02	2.908710323171497976e+02	5.042647955052731445e-01	4.952599506808085250e-01	5.320377640088422844e-01	-4.890924127772009911e+00
30000	2.868699756828350473e+02	2.887749580223891144e+02	2.908757259779863489e+02	5.052603772333412735e-01	4.955589676305697244e-01	5.330464056606896150e-01	-4.806281098854161549e+00
30600	2.869673861033369349e+02	2.888355576131210682e+02	2.908658116580501201e+02	5.062396163037237162e-01	4.958563831806950817e-01	5.339916827562641854e-01	-4.702914270277162245e+00
31200	2.870549949726699310e+02	2.888929831104042592e+02	2.908680976065969617e+02	5.071847315883288854e-01	4.961514350800999562e-01	5.349514940884352310e-01	-4.596766517792062245e+00
31800	2.871367493645656168e+02	2.889483399491893465e+02	2.908838281498542528e+02	5.081031493803375154e-01	4.964471941976936198e-01	5.359338170019821712e-01	-4.501496558273651694e+00
32400	2.872098640508176572e+02	2.890028646148804796e+02	2.909133740813554141e+02	5.089826086305542230e-01	4.967472512709301680e-01	5.369462924592967035e-01	-4.425233743861374691e+00
33000	2.872855483863329482e+02	2.890577903351876898e+02	2.909502136795945262e+02	5.098441914220962490e-01	4.970551520796223088e-01	5.379728271940934503e-01	-4.364848924054069101e+00
33600	2.873742163970559886e+02	2.891140743440270171e+02	2.909824651953284729e+02	5.107131580280126482e-01	4.973734943206027936e-01	5.389765587491536225e-01	-4.306083920779827601e+00
34200	2.874492798592309555e+02	2.891706871004744244e+02	2.910100345822689292e+02	5.115231288242337859e-01	4.976997966567904275e-01	5.399528706894616281e-01	-4.248046571471704169e+00
34800	2.875045211138501600e+02	2.892260935552369006e+02	2.910449738113398439e+02	5.122538497026363213e-01	4.980304489745390195e-01	5.409349115318202728e-01	-4.202545871318056570e+00
35400	2.875588377640480076e+02	2.892792112632469070e+02	2.910723602986238916e+02	5.129474480011415594e-01	4.983628840064900922e-01	5.418851757805743796e-01	-4.165498589233121329e+00
36000	2.876319913710725586e+02	2.893301918430755109e+02	2.910855028582477644e+02	5.136521831290924434e-01	4.986973084859562255e-01	5.427860350032395198e-01	-4.118256874160023173e+00
36600	2.877112961897597074e+02	2.893795708367504744e+02	2.910931680180126477e+02	5.143369142951426110e-01	4.990347521509235218e-01	5.436594949422465239e-01	-4.054863527872536899e+00
37200	2.877819065266141934e+02	2.894268537112593549e+02	2.910957071471200948e+02	5.149608196578592256e-01	4.993737021916465624e-01	5.445036430108385339e-01	-3.982116540038456609e+00
37800	2.878525005227393194e+02	2.894730227074988989e+02	2.911136036727983196e+02	5.155409851083536665e-01	4.997166306844206263e-01	5.453776796444284036e-01	-3.912216749609458422e+00
38400	2.879261652854178806e+02	2.895197466945199380e+02	2.911415223899189755e+02	5.160819971065837564e-01	5.000678783587588772e-01	5.462735480200581195e-01	-3.850060145196489536e+00
39000	2.879938299301272195e+02	2.895661954169734145e+02	2.911544224236482137e+02	5.165608927598470679e-01	5.004253043373436682e-01	5.471227827266412769e-01	-3.789435506152380118e+00
39600	2.880471274954569481e+02	2.896095681828921329e+02	2.911503185745557403e+02	5.169530941998303764e-01	5.007816055420678536e-01	5.479129295791016485e-01	-3.726541348005554255e+00
40200	2.880860858024552158e+02	2.896487645699902487e+02	2.911571135933350547e+02	5.172534339387199198e-01	5.011339363587087314e-01	5.487133917516933135e-01	-3.672426903794265840e+00
40800	2.881189444927396721e+02	2.896853880668468832e+02	2.911873181716419481e+02	5.174834406463543202e-01	5.014865769978011922e-01	5.495644644808912460e-01	-3.639936278440702111e+00
41400	2.881593924504401798e+02	2.897213629645237916e+02	2.912199316013005159e+02	5.176768309051043016e-01	5.018445567065292767e-01	5.504180867282930656e-01	-3.622017290971812464e+00
42000	2.882072472510946000e+02	2.897580626101380403e+02	2.912535651800334904e+02	5.178338396770209018e-01	5.022113470767890497e-01	5.512704554407640289e-01	-3.608148784221798966e+00
42600	2.882469073772026604e+02	2.897947580891138273e+02	2.912792602342255464e+02	5.179151524815926999e-01	5.025849330241242141e-01	5.520927297248268140e-01	-3.594546440228731488e+00
43200	2.882725713817318933e+02	2.898290795139521947e+02	2.912927723920050198e+02	5.179014978317527662e-01	5.029590303611822799e-01	5.528721974902273129e-01	-3.581311852990601174e+00
43800	2.882895704614160763e+02	2.898585390122058243e+02	2.912905844184595026e+02	5.178049281603605003e-01	5.033269223681676729e-01	5.535962131039264822e-01	-3.565443628904663154e+00
44400	2.883042503530978706e+02	2.898827328322249741e+02	2.912895725575656911e+02	5.176452960179281915e-01	5.036872220469461592e-01	5.543125229210225102e-01	-3.548726781679051090e+00
45000	2.883139024660769110e+02	2.899032220933925146e+02	2.913038471953263979e+02	5.174226081414251555e-01	5.040437537440685123e-01	5.550650745964843535e-01	-3.541002258671076763e+00
45600	2.883233986655957892e+02	2.899213209076415296e+02	2.913186069904889450e+02	5.171514330762672085e-01	5.043997330059019069e-01	5.558134905380155422e-01	-3.541940363864311880e+00
46200	2.883356336429073394e+02	2.899376243767616188e+02	2.913286368509354816e+02	5.168403141860763439e-01	5.047564302610005882e-01	5.565405306848657530e-01	-3.544531608218775887e+00
46800	2.883429346937826949e+02	2.899513830945327300e+02	2.913271365131658399e+02	5.164708836946769743e-01	5.051115353459133539e-01	5.572223092826341651e-01	-3.543462038086977461e+00
47400	2.883376661221933546e+02	2.899605329085756580e+02	2.913100903374415225e+02	5.160255276749187159e-01	5.054592796944586963e-01	5.578420086265011291e-01	-3.537584074937458301e+00
48000	2.883170552047688489e+02	2.899632791986135203e+02	2.912869606231423631e+02	5.154980329690842522e-01	5.057946339875716291e-01	5.584239191524907886e-01	-3.532423721225292912e+00
48600	2.882921937699142063e+02	2.899594945136935848e+02	2.912632319236717535e+02	5.149156648430653904e-01	5.061168908544062539e-01	5.589876116052739929e-01	-3.530966829731524204e+00
49200	2.882738182886357095e+02	2.899511785206229888e+02	2.912472290952446770e+02	5.143097591905129162e-01	5.064308360808804643e-01	5.595628984477185597e-01	-3.533134175316427150e+00
49800	2.882580315173313465e+02	2.899415616303258503e+02	2.912513176618621742e+02	5.136700246119740854e-01	5.067445760124245080e-01	5.601846498002068797e-01	-3.545138427971563200e+00
50400	2.882334559635586970e+02	2.899326690353936442e+02	2.912702217405156375e+02	5.129697938704904647e-01	5.070633247979721148e-01	5.608423842751263377e-01	-3.575125083749745247e+00
51000	2.882019007017744343e+02	2.899254125989911017e+02	2.913015250482440024e+02	5.122239437118480954e-01	5.073895604932905368e-01	5.615370955203060621e-01	-3.626628514405255466e+00
51600	2.881716256766526953e+02	2.899195651033999184e+02	2.913281459719736404e+02	5.114566044878708917e-01	5.077226855115247739e-01	5.622257611541654487e-01	-3.689753498807170295e+00
52200	2.881365977110135645e+02	2.899130788132462158e+02	2.913359931878705993e+02	5.106503676294009697e-01	5.080571622476248717e-01	5.628648266630379426e-01	-3.751135605827420783e+00
52800	2.880987831155568415e+02	2.899038552946838081e+02	2.913302866354424054e+02	5.098095118043671770e-01	5.083871212791346572e-01	5.634630680345076303e-01	-3.803847755614384596e+00
53400	2.880606173602624267e+02	2.898916539251561630e+02	2.913273530085755283e+02	5.089463712598699674e-01	5.087114762221750519e-01	5.640587035871242882e-01	-3.851340900330610939e+00
54000	2.880187789810112804e+02	2.898767308779370069e+02	2.913236699959537646e+02	5.080606673019549824e-01	5.090304977165477363e-01	5.646446316816140509e-01	-3.897940626236374939e+00
54600	2.879693407430183925e+02	2.898585817422533637e+02	2.913131282459290219e+02	5.071500593199840257e-01	5.093425583802345669e-01	5.652076046396020681e-01	-3.944950084040665939e+00
55200	2.879278651801546971e+02	2.898371577408431676e+02	2.912929451137168257e+02	5.062521675967259771e-01	5.096470580074041745e-01	5.657423344501585349e-01	-3.985027231740386533e+00
55800	2.878955887280939692e+02	2.898136666272955040e+02	2.912738293080503809e+02	5.053642043817205831e-01	5.099465612885739629e-01	5.662730440670850074e-01	-4.015310996527925447e+00
56400	2.878516693201759722e+02	2.897891333192164893e+02	2.912668221597578508e+02	5.044346803082691011e-01	5.102434459428032421e-01	5.668283069718401679e-01	-4.049011075254953518e+00
57000	2.877896929732752369e+02	2.897632302458258664e+02	2.912651863917994319e+02	5.034528902864118249e-01	5.105369267024923996e-01	5.673932073317938807e-01	-4.098286603994615085e+00
57600	2.877212355795909389e+02	2.897341773827352540e+02	2.912463070044425422e+02	5.024499472193112437e-01	5.108223911811529128e-01	5.679090066035734630e-01	-4.155023247667533504e+00
58200	2.876581639058267683e+02	2.897007868145446423e+02	2.912119100481086775e+02	5.014566823805535201e-01	5.110964301455585002e-01	5.683760738146526048e-01	-4.204771771158223537e+00
58800	2.876023187417368945e+02	2.896644130739131242e+02	2.911864645111696746e+02	5.004809536254496427e-01	5.113620846119815155e-01	5.688580366021335211e-01	-4.247844573724531614e+00
59400	2.875464317296892318e+02	2.896274009511052441e+02	2.911761720328871661e+02	4.995072775247133001e-01	5.116251493199354128e-01	5.693762975159749606e-01	-4.294157317478815017e+00
60000	2.874771284210739850e+02	2.895895463154917593e+02	2.911600064450078662e+02	4.985049659327795979e-01	5.118850996691869382e-01	5.698786571649268051e-01	-4.347752170227720647e+00
60600	2.874052054660696740e+02	2.895488842574345654e+02	2.911234692709607543e+02	4.975011023107508423e-01	5.121367524144893046e-01	5.703252888501423312e-01	-4.398716690997201972e+00
61200	2.873346890164572187e+02	2.895043214830690772e+02	2.910777778884444160e+02	4.965063435658532143e-01	5.123769715612470632e-01	5.707390381482380093e-01	-4.440604917730712309e+00
61800	2.872595766200636263e+02	2.894562415331626539e+02	2.910379775922709769e+02	4.955104217270526190e-01	5.126064824167018141e-01	5.711565363255185490e-01	-4.480119397966949357e+00
62400	2.871840755575005915e+02	2.894069924947960999e+02	2.910205029148305016e+02	4.945289678936914957e-01	5.128312945539930112e-01	5.716278177254121573e-01	-4.530190256879939703e+00
63000	2.871067521957862141e+02	2.893587923711547205e+02	2.910172690177313939e+02	4.935618391831043117e-01	5.130573063899852571e-01	5.721386171434551526e-01	-4.596782505059554325e+00
63600	2.870268100211983437e+02	2.893117640550983083e+02	2.910087601524101046e+02	4.926092554701115289e-01	5.132850513408220294e-01	5.726394357713497918e-01	-4.673368913578783257e+00
64200	2.869437761064879169e+02	2.892647695290179968e+02	2.909922201223982370e+02	4.916692935093974204e-01	5.135117132767441639e-01	5.731159256926069423e-01	-4.751936343090418902e+00
64800	2.868538716747822832e+02	2.892167385818320895e+02	2.909745961532682941e+02	4.907334280793496650e-01	5.137346206332873422e-01	5.735840976129641389e-01	-4.832320137701747065e+00
